398	0
571	0
905	0
662	0
733	0
838	0
537	0
857	0
419	0
906	0
728	0
713	31
430	33
739	31
650	28
795	26
756	23
386	20
882	18
605	17
755	20
698	16
829	16
403	14
368	12
677	12
655	11
640	9
847	10
467	11
528	8
636	7
829	7
528	6
644	4
712	4
552	5
312	3
529	4
724	3
809	1
891	2
887	2
933	1
356	0
336	0
651	0
731	1
369	2
899	4
906	3
888	0
737	0
584	0
652	0
769	2
752	3
881	0
538	0
862	0
916	0
876	0
889	0
419	1
879	0
653	0
479	1
906	0
468	1
766	0
428	0
873	0
403	0
612	0
780	0
933	0
833	0
337	0
927	0
420	0
844	0
493	0
901	0
908	0
861	0
367	0
368	0
755	0
790	0
916	0
456	0
439	0
850	0
852	0
911	0
829	0
712	0
729	0
673	0
433	0
564	0
700	0
761	0
713	0
629	0
713	0
396	0
322	0
514	0
363	0
840	0
881	0
813	0
928	0
507	1
659	0
773	0
810	0
892	0
781	0
872	0
462	1
678	0
804	0
524	0
606	0
565	0
652	0
423	0
864	0
480	0
826	0
500	4
820	1
932	0
582	0
359	0
735	0
777	0
700	0
828	0
463	0
796	0
620	0
666	0
884	0
893	0
867	0
457	0
524	0
775	0
740	0
931	0
483	0
583	0
560	0
414	0
904	0
596	0
928	0
471	0
331	0
893	0
480	0
756	0
571	0
602	0
891	0
683	0
742	0
431	0
534	0
598	0
770	0
330	0
755	0
765	0
515	1
395	0
475	0
479	0
934	0
387	0
708	0
712	0
619	0
679	0
593	0
769	0
460	0
451	0
858	0
925	0
355	0
458	0
445	0
886	0
793	0
697	0
814	0
746	0
350	0
702	0
925	0
523	0
762	0
472	0
465	0
396	0
808	0
407	0
813	0
376	0
369	0
920	0
624	0
773	0
921	0
709	0
410	0
881	0
907	0
870	0
746	0
859	0
917	0
373	0
809	0
616	0
367	0
923	0
515	1
530	0
445	0
471	0
347	0
455	0
503	0
931	0
498	0
816	0
889	0
395	0
514	0
782	0
616	0
578	0
751	0
383	0
918	0
369	0
349	0
629	0
873	1
508	0
497	0
787	0
918	0
770	0
765	0
583	0
775	0
457	0
444	0
883	0
859	0
556	0
378	0
507	0
927	0
692	0
842	0
908	0
794	0
645	0
548	0
573	0
765	0
902	0
759	0
867	0
398	0
480	0
720	0
830	0
474	0
650	0
503	0
890	0
758	0
776	0
442	0
773	0
762	0
846	0
742	0
416	0
793	0
726	0
922	0
530	0
835	0
546	0
342	0
733	0
862	0
444	0
728	0
728	0
886	0
862	0
527	0
910	0
398	0
915	0
512	0
328	0
681	0
364	0
732	0
755	0
552	0
747	0
559	0
500	0
637	0
765	0
927	0
462	0
483	0
830	0
638	0
674	0
542	1
906	0
928	0
919	0
848	0
743	0
754	0
755	0
717	0
740	0
862	0
562	0
489	0
388	0
588	0
550	0
786	0
687	0
759	0
412	0
554	0
689	0
863	0
869	0
866	0
842	0
826	0
659	0
752	0
903	0
493	0
861	0
760	0
730	0
617	0
781	0
648	0
910	0
477	0
880	0
444	0
385	0
640	0
460	0
717	0
690	0
864	0
809	0
676	0
782	0
799	0
870	0
393	0
596	0
820	0
898	0
717	0
444	0
876	0
445	0
869	0
888	0
680	0
814	0
790	0
774	0
522	0
906	0
721	0
591	0
758	0
850	0
908	0
681	0
424	0
698	0
828	0
675	0
885	0
821	0
917	0
849	0
862	0
457	0
908	0
372	0
654	0
390	0
874	0
488	0
782	0
374	0
847	0
385	0
362	0
329	0
838	0
896	0
415	2
763	0
884	0
862	0
870	0
660	0
612	0
330	0
436	0
699	0
817	0
915	0
595	0
808	0
657	0
765	0
925	0
783	0
646	0
557	0
893	0
884	0
779	0
466	0
529	0
777	0
697	0
906	0
546	0
913	0
562	0
901	0
641	0
534	0
626	0
433	0
898	0
806	0
532	0
433	0
918	0
371	0
655	0
895	0
693	0
903	0
705	0
919	0
806	0
906	0
913	0
544	0
798	0
529	0
441	0
368	0
471	0
637	0
347	0
576	0
588	0
675	0
379	0
913	0
512	0
845	0
440	0
921	0
794	0
550	0
609	0
928	0
877	0
926	0
526	0
870	0
769	0
362	0
385	0
552	0
821	0
669	0
646	0
629	0
565	0
810	0
320	0
803	0
516	0
703	0
478	0
880	0
897	0
505	0
881	0
661	0
918	0
701	0
358	0
759	0
751	0
440	0
660	0
889	0
602	0
869	0
886	0
365	0
884	0
790	0
580	0
738	0
874	0
715	0
903	0
809	0
512	0
554	0
731	0
613	0
709	0
891	0
817	0
541	0
805	0
567	0
626	0
565	0
417	0
519	0
536	0
359	0
755	0
320	0
532	0
906	0
486	0
855	0
872	0
862	0
825	0
884	0
900	0
620	0
551	0
875	0
549	0
708	0
875	0
625	0
559	0
887	0
479	0
740	0
806	0
863	0
799	0
529	0
750	0
421	0
590	0
703	0
465	0
423	0
711	0
913	0
441	0
854	0
774	0
428	0
464	0
841	0
887	0
875	0
550	0
653	0
613	0
935	0
638	0
607	0
406	0
712	0
820	0
554	0
596	0
821	0
563	0
432	0
388	0
341	0
907	0
563	0
809	0
327	0
829	0
659	0
625	0
860	0
815	0
906	0
575	0
871	0
402	0
917	0
774	0
539	0
895	0
494	0
904	0
851	0
779	0
919	0
818	0
914	0
918	0
712	0
911	0
834	0
753	0
872	0
347	0
461	0
850	0
921	0
369	0
779	0
742	0
745	0
852	0
897	0
593	0
762	0
371	0
615	0
591	0
902	0
873	0
638	0
600	0
817	0
755	0
523	0
924	0
431	0
793	0
897	0
617	0
530	0
906	0
614	0
601	0
816	0
822	0
459	0
724	0
507	0
400	0
711	0
670	0
634	0
700	0
624	0
911	0
416	0
530	0
910	0
547	0
879	0
538	0
451	0
577	0
823	0
898	0
838	0
721	0
910	0
902	0
847	0
907	0
330	0
872	0
853	0
664	0
887	0
902	0
912	0
470	0
457	0
878	0
902	0
651	0
448	0
779	0
802	0
865	0
584	0
469	0
767	0
826	0
631	0
479	0
824	0
891	0
463	0
646	0
500	0
680	0
821	0
911	0
804	0
732	0
601	0
794	0
719	0
382	0
371	0
592	0
859	0
890	0
896	0
435	0
678	0
703	0
922	0
848	0
403	0
603	0
846	0
542	0
342	0
541	0
393	0
888	0
372	0
909	0
910	0
781	0
769	0
738	0
591	0
927	0
854	0
535	0
756	0
575	0
632	0
396	0
833	0
679	0
784	0
437	0
806	0
375	0
737	0
720	0
447	0
832	0
608	0
666	0
302	0
795	0
742	0
841	0
359	0
401	1
909	0
718	0
429	0
796	0
722	0
323	0
910	0
740	0
877	0
901	0
911	0
519	0
809	0
846	0
680	0
919	0
573	0
315	0
655	0
832	0
909	0
686	0
883	0
907	0
852	0
338	0
759	0
360	0
912	0
848	0
412	0
369	0
568	0
897	0
470	0
897	0
883	0
905	0
436	0
797	0
510	0
897	0
767	0
673	0
681	0
372	0
448	0
728	0
858	0
850	0
910	0
737	0
353	0
549	0
557	0
562	0
373	0
386	0
801	0
816	0
723	0
895	0
706	0
610	0
348	0
604	0
511	0
523	0
678	0
869	0
554	0
753	0
592	0
879	0
700	0
834	0
478	0
925	0
931	0
886	0
837	0
729	0
867	0
433	0
704	0
763	0
761	0
756	0
894	0
904	0
859	0
744	0
444	0
685	0
685	0
860	0
526	0
899	0
835	0
437	0
824	0
787	0
638	0
894	0
525	0
854	0
645	0
880	0
538	0
856	0
891	0
627	0
748	0
370	0
457	0
844	0
916	0
808	0
648	0
915	0
821	0
380	0
711	0
887	0
897	0
632	0
735	0
760	0
425	0
719	0
599	0
363	0
814	0
717	0
473	0
874	0
361	0
707	0
398	0
585	0
328	0
637	0
454	0
912	2
899	0
810	0
869	0
550	0
673	0
365	0
776	0
910	0
738	0
405	0
906	0
548	3
612	1
818	1
889	0
572	0
898	0
918	0
862	3
521	1
650	0
738	2
526	3
664	2
348	1
490	2
800	2
463	4
899	4
550	5
527	3
913	0
728	2
734	5
883	3
850	3
800	3
591	2
536	4
696	3
921	4
778	2
484	2
655	2
536	4
693	3
757	1
857	3
884	4
878	6
827	3
621	4
573	7
819	4
794	4
591	2
496	7
858	6
831	6
901	6
748	4
615	5
386	5
826	3
414	2
330	5
409	4
550	5
901	5
751	4
576	3
579	2
835	3
383	1
337	4
400	5
639	4
665	4
689	4
606	4
567	4
877	3
762	4
654	2
738	3
784	4
438	4
788	0
735	0
